======================================================================
PATH 13: FIELD BALANCE / SOLITON NEUTRALITY
======================================================================

  g0_e  = 0.86770494
  g0_mu = 1.40397609

  A_e    = 0.13093529,  delta_e  = -2.7647 rad = -158.41 deg
  A_mu   = 0.49654654,  delta_mu = -0.1457 rad = -8.35 deg
  r_21   = 206.8298

======================================================================
SECTION 1: TAIL PROPERTIES vs g0_tau
======================================================================

    g0_tau      A_tau  delta_tau      Q_K      sum_A     sum_A2      cross self/cross
    1.4200   0.525119    -0.0920   2.1222   0.539452   0.137123   0.076943     1.7821
    1.4250   0.534365    -0.0731   2.1152   0.549248   0.142621   0.079526     1.7934
    1.4300   0.543783    -0.0532   2.1069   0.559402   0.148523   0.082204     1.8068
    1.4350   0.553383    -0.0322   2.0975   0.569935   0.154863   0.084981     1.8223
    1.4400   0.563177    -0.0099   2.0869   0.580871   0.161681   0.087865     1.8401
    1.4450   0.573177     0.0136   2.0752   0.592235   0.169019   0.090862     1.8602
    1.4500   0.583397     0.0385   2.0624   0.604054   0.176924   0.093979     1.8826
    1.4550   0.593851     0.0649   2.0485   0.616362   0.185453   0.097224     1.9075
    1.4600   0.604556     0.0928   2.0336   0.629191   0.194667   0.100607     1.9349
    1.4650   0.615531     0.1224   2.0178   0.642581   0.204634   0.104138     1.9650
    1.4700   0.626796     0.1538   2.0010   0.656576   0.215434   0.107829     1.9979
    1.4750   0.638374     0.1871   1.9834   0.671224   0.227159   0.111692     2.0338
    1.4800   0.650293     0.2225   1.9649   0.686583   0.239913   0.115742     2.0728
    1.4850   0.662579     0.2601   1.9455   0.702714   0.253816   0.119995     2.1152
    1.4900   0.675269     0.3003   1.9254   0.719691   0.269010   0.124472     2.1612
    1.4950   0.688400     0.3431   1.9045   0.737597   0.285661   0.129194     2.2111
    1.5000   0.702018     0.3889   1.8829   0.756531   0.303965   0.134187     2.2652
    1.5050   0.716173     0.4379   1.8606   0.776606   0.324155   0.139481     2.3240
    1.5100   0.730925     0.4906   1.8376   0.797954   0.346510   0.145111     2.3879
    1.5150   0.746347     0.5473   1.8138   0.820737   0.371372   0.151118     2.4575
    1.5200   0.762523     0.6085   1.7894   0.845143   0.399158   0.157554     2.5335
    1.5250   0.779553     0.6749   1.7643   0.871405   0.430388   0.164480     2.6167
    1.5300   0.797563     0.7471   1.7385   0.899810   0.465717   0.171970     2.7081
    1.5350   0.816703     0.8261   1.7120   0.930707   0.505979   0.180118     2.8092
    1.5400   0.837163     0.9129   1.6846   0.964545   0.552265   0.189041     2.9214
    1.5450   0.859185     1.0089   1.6564   1.001901   0.606021   0.198892     3.0470
    1.5500   0.883080     1.1159   1.6272   1.043532   0.669219   0.209870     3.1887
    1.5550   0.909263     1.2364   1.5969   1.090461   0.744615   0.222245     3.3504
    1.5600   0.938307     1.3735   1.5654   1.144123   0.836226   0.236396     3.5374
    1.5650   0.971010     1.5319   1.5323   1.206564   0.950072   0.252862     3.7573
    1.5700   1.008539     1.7183   1.4973   1.280854   1.095683   0.272452     4.0216 <--
    1.5750   1.052758     1.9432   1.4599   1.372002   1.289413   0.296488     4.3489
    1.5800   1.106771     2.2246   1.4191   1.488644   1.561566   0.327247     4.7718
    1.5850   1.176476     2.5964   1.3735   1.647798   1.976804   0.369216     5.3541
    1.5900   1.275290     3.1361   1.3201   1.890066   2.706143   0.433103     6.2483
    1.5950   1.446825    -2.1852   1.2504   2.357006   4.443002   0.556236     7.9876

======================================================================
SECTION 2: COMPLEX NEUTRALITY  sum(A_i * exp(i*delta_i))
======================================================================

  Phases:
    delta_e  = -2.764732 rad = -158.41 deg
    delta_mu = -0.145658 rad = -8.35 deg
    delta_tau = 1.703196 rad = 97.59 deg
    g0_tau(Koide) = 1.56962743

  Complex sum: z_e + z_mu + z_tau
    = 0.236797 + 0.876488i
    |z_sum| = 0.907912
    |z_sum| / |z_tau| = 0.902906

  Is complex neutrality achievable?
  For z_sum = 0: need z_tau = -(z_e + z_mu)
  Target: A_tau = 0.388616, delta_tau = 161.97 deg
  Actual: A_tau = 1.005544, delta_tau = 97.59 deg

======================================================================
SECTION 3: FIELD CHARGE Q_i = integral (g-1)*r^2 dr
======================================================================
  Q_e  = -25.801871
  Q_mu = -164.194086

    g0_tau        Q_tau        Q_sum      Q_K
    1.4500    -192.0073    -382.0033   2.0624
    1.4550    -194.9674    -384.9633   2.0485
    1.4600    -196.7809    -386.7769   2.0336
    1.4650    -201.2183    -391.2142   2.0178
    1.4700    -200.9226    -390.9186   2.0010
    1.4750    -203.0026    -392.9985   1.9834
    1.4800    -207.4643    -397.4602   1.9649
    1.4850    -209.1315    -399.1275   1.9455
    1.4900    -208.9938    -398.9897   1.9254
    1.4950    -209.8720    -399.8680   1.9045
    1.5000    -212.1433    -402.1393   1.8829
    1.5050    -210.8045    -400.8005   1.8606
    1.5100    -214.3309    -404.3268   1.8376
    1.5150    -212.5052    -402.5011   1.8138
    1.5200    -214.3028    -404.2987   1.7894
    1.5250    -216.3325    -406.3284   1.7643
    1.5300    -218.2461    -408.2421   1.7385
    1.5350    -219.5659    -409.5618   1.7120
    1.5400    -220.8614    -410.8573   1.6846
    1.5450    -224.9846    -414.9806   1.6564
    1.5500    -231.7492    -421.7451   1.6272
    1.5550    -243.3750    -433.3710   1.5969
    1.5600    -259.0905    -449.0864   1.5654
    1.5650    -284.6750    -474.6709   1.5323
    1.5700    -325.2277    -515.2237   1.4973 <-- Koide
    1.5750    -391.9678    -581.9638   1.4599
    1.5800    -499.2786    -689.2745   1.4191
    1.5850    -682.8580    -872.8539   1.3735
    1.5900   -1022.5405   -1212.5365   1.3201

  At Koide point:
  Q_e + Q_mu + Q_tau = -511.169682
  Q_e   = -25.801871
  Q_mu  = -164.194086
  Q_tau = -321.173724
  Q_mu/Q_e = 6.363650
  Q_tau/Q_e = 12.447691
  Q_tau/Q_mu = 1.956061

======================================================================
SECTION 4: FIELD ENERGY E_i = integral (g-1)^2 * r^2 dr
======================================================================
  E_e  = 2.577545
  E_mu = 37.213290

    g0_tau        E_tau        E_sum      E_rat      Q_K
    1.4500      51.5577      91.3486     2.0606   2.0624
    1.4550      53.4499      93.2407     2.0464   2.0485
    1.4600      55.4227      95.2135     2.0312   2.0336
    1.4650      57.4901      97.2810     2.0150   2.0178
    1.4700      59.6444      99.4352     1.9979   2.0010
    1.4750      61.9081     101.6989     1.9798   1.9834
    1.4800      64.2907     104.0815     1.9608   1.9649
    1.4850      66.7919     106.5827     1.9410   1.9455
    1.4900      69.4257     109.2166     1.9204   1.9254
    1.4950      72.2123     112.0032     1.8990   1.9045
    1.5000      75.1688     114.9596     1.8767   1.8829
    1.5050      78.3036     118.0944     1.8538   1.8606
    1.5100      81.6574     121.4482     1.8301   1.8376
    1.5150      85.2356     125.0265     1.8057   1.8138
    1.5200      89.0897     128.8806     1.7806   1.7894
    1.5250      93.2521     133.0429     1.7547   1.7643
    1.5300      97.7708     137.5616     1.7281   1.7385
    1.5350     102.7063     142.4971     1.7006   1.7120
    1.5400     108.1374     147.9283     1.6723   1.6846
    1.5450     114.1695     153.9603     1.6431   1.6564
    1.5500     120.9343     160.7251     1.6129   1.6272
    1.5550     128.6135     168.4043     1.5815   1.5969
    1.5600     137.4566     177.2474     1.5487   1.5654
    1.5650     147.8304     187.6213     1.5144   1.5323
    1.5700     160.2851     200.0759     1.4781   1.4973 <-- Koide
    1.5750     175.7015     215.4924     1.4393   1.4599
    1.5800     195.6244     235.4152     1.3974   1.4191
    1.5850     223.1061     262.8970     1.3507   1.3735
    1.5900     265.5947     305.3855     1.2965   1.3201

  At Koide point:
  E_e + E_mu + E_tau = 199.059525
  E ratio = (sum E)^2 / sum(E^2) = 1.480855

======================================================================
SECTION 5: SELF-ENERGY = 4 * CROSS-ENERGY CONDITION
======================================================================

  Q_K = 3/2 is EQUIVALENT to:
    sum(A_i^4) = 4 * sum_{i<j}(A_i^2 * A_j^2)

  i.e., "self-interaction = 4 * cross-interaction"
  in the space of tail amplitudes.

  Physical interpretation:
  Each soliton's tail creates a "field disturbance" with amplitude A_i.
  The "self-energy" of these disturbances is sum(A_i^4).
  The "cross-energy" (interference between pairs) is sum(A_i^2 * A_j^2).

  Q_K = 3/2 requires their ratio to be EXACTLY 4.

  WHY 4? Is this related to the structure of the TGP ODE?

  A_e^2   = 0.01714405
  A_mu^2  = 0.24655847
  A_tau^2 = 1.01111892
  self   = sum(A_i^4)         = 1.08344646
  cross  = sum(A_i^2*A_j^2)   = 0.27086162
  self/cross = 4.000000  (Koide requires: 4.0)
  Q_K = (sum x)^2/sum(x^2) = 1.500000

======================================================================
SECTION 6: PHASE STRUCTURE OF THREE SOLITONS
======================================================================

  Soliton tail: (g-1)*r ~ A_i * sin(r - delta_i)
  Phase differences (mod 2pi):
    delta_mu - delta_e  = 2.6191 rad = 150.06 deg
    delta_tau - delta_e = 4.4679 rad = 255.99 deg
    delta_tau - delta_mu = 1.8489 rad = 105.93 deg
    Sum of phase diffs  = 4.4679 rad = 255.99 deg

  2*pi/3 = 2.0944 rad = 120.00 deg
  pi/3   = 1.0472 rad = 60.00 deg

  Koide parametrization angle: theta_K = 2.3166 rad = 132.73 deg
  Koide angles: 132.73, 252.73, 372.73
  ODE phases:   -158.41, -8.35, 97.59

======================================================================
SECTION 7: TAIL OVERLAP INTEGRAL (interference)
======================================================================

  Asymptotic overlap integrals (proportional to):
    <e|e>   ~ A_e^2 / 2 = 0.00857202
    <mu|mu> ~ A_mu^2/2  = 0.12327923
    <tau|tau> ~ A_tau^2/2 = 0.50555946

    <e|mu>  ~ A_e*A_mu/2 * cos(d12) = -0.02817005
    <e|tau> ~ A_e*A_tau/2 * cos(d13) = -0.01593321
    <mu|tau> ~ A_mu*A_tau/2* cos(d23) = -0.06852604

    Sum diagonal  = 0.63741072
    Sum off-diag  = -0.11262930
    Total overlap = 0.52478142
    diag/off ratio = -5.659368

======================================================================
SECTION 8: FIELD DEBT INTERPRETATION
======================================================================

  User's hypothesis: lighter solitons create a "field debt"
  that heavier solitons must repay.

  In TGP, the soliton modifies g from vacuum (g=1):
    - For g0 < 1 (electron): field is SUPPRESSED below vacuum
    - For g0 > 1 (muon, tau): field is ENHANCED above vacuum

  The "debt" picture: electron pulls g below 1 (creates deficit),
  muon and tau push g above 1 (create surplus).

  Balance: total field displacement = 0?
  Or: total field "action" = 0?

  g0_e  = 0.8677 < 1 (deficit)
  g0_mu = 1.4040 > 1 (surplus)
  g0_tau= 1.5696 > 1 (surplus)

  Field charges (integral of (g-1)*r^2 dr):
  Q_e   = -25.801871 (negative: deficit)
  Q_mu  = -164.194086 (negative: deficit)
  Q_tau = -321.173724 (negative: deficit)

  For neutrality: Q_e + Q_mu + Q_tau = 0
  Need Q_tau = --189.995957

  Searching for g0_tau with sum(Q_i) = 0:
  Target Q_tau = 189.995957
    g0_tau=1.4200: Q_tau=-173.9754, sum=-363.9714, Q_K=2.1222
    g0_tau=1.4250: Q_tau=-178.3026, sum=-368.2985, Q_K=2.1152
    g0_tau=1.4300: Q_tau=-182.4927, sum=-372.4886, Q_K=2.1069
    g0_tau=1.4350: Q_tau=-183.1940, sum=-373.1899, Q_K=2.0975
    g0_tau=1.4400: Q_tau=-186.1913, sum=-376.1873, Q_K=2.0869
    g0_tau=1.4450: Q_tau=-191.2855, sum=-381.2815, Q_K=2.0752
    g0_tau=1.4500: Q_tau=-192.0074, sum=-382.0034, Q_K=2.0624
    g0_tau=1.4550: Q_tau=-194.9669, sum=-384.9628, Q_K=2.0485
    g0_tau=1.4600: Q_tau=-196.7806, sum=-386.7766, Q_K=2.0336
    g0_tau=1.4650: Q_tau=-201.2184, sum=-391.2143, Q_K=2.0178
    g0_tau=1.4700: Q_tau=-200.9232, sum=-390.9192, Q_K=2.0010
    g0_tau=1.4750: Q_tau=-203.0029, sum=-392.9988, Q_K=1.9834
    g0_tau=1.4800: Q_tau=-207.4647, sum=-397.4606, Q_K=1.9649
    g0_tau=1.4850: Q_tau=-209.1319, sum=-399.1279, Q_K=1.9455
    g0_tau=1.4900: Q_tau=-208.9939, sum=-398.9899, Q_K=1.9254
    g0_tau=1.4950: Q_tau=-209.8716, sum=-399.8675, Q_K=1.9045
    g0_tau=1.5000: Q_tau=-212.1432, sum=-402.1391, Q_K=1.8829
    g0_tau=1.5050: Q_tau=-210.8049, sum=-400.8009, Q_K=1.8606
    g0_tau=1.5100: Q_tau=-214.3305, sum=-404.3264, Q_K=1.8376
    g0_tau=1.5150: Q_tau=-212.5052, sum=-402.5011, Q_K=1.8138
    g0_tau=1.5200: Q_tau=-214.3030, sum=-404.2990, Q_K=1.7894
    g0_tau=1.5250: Q_tau=-216.3325, sum=-406.3285, Q_K=1.7643
    g0_tau=1.5300: Q_tau=-218.2464, sum=-408.2423, Q_K=1.7385
    g0_tau=1.5350: Q_tau=-219.5664, sum=-409.5624, Q_K=1.7120
    g0_tau=1.5400: Q_tau=-220.8614, sum=-410.8574, Q_K=1.6846
    g0_tau=1.5450: Q_tau=-224.9846, sum=-414.9806, Q_K=1.6564
    g0_tau=1.5500: Q_tau=-231.7493, sum=-421.7453, Q_K=1.6272
    g0_tau=1.5550: Q_tau=-243.3747, sum=-433.3706, Q_K=1.5969
    g0_tau=1.5600: Q_tau=-259.0906, sum=-449.0866, Q_K=1.5654
    g0_tau=1.5650: Q_tau=-284.6750, sum=-474.6709, Q_K=1.5323
    g0_tau=1.5700: Q_tau=-325.2276, sum=-515.2236, Q_K=1.4973 <-- Koide
    g0_tau=1.5750: Q_tau=-391.9681, sum=-581.9641, Q_K=1.4599
    g0_tau=1.5800: Q_tau=-499.2766, sum=-689.2726, Q_K=1.4191
    g0_tau=1.5850: Q_tau=-682.8575, sum=-872.8534, Q_K=1.3735
    g0_tau=1.5900: Q_tau=-1022.5418, sum=-1212.5378, Q_K=1.3201
    g0_tau=1.5950: Q_tau=-1679.8377, sum=-1869.8337, Q_K=1.2504

======================================================================
SECTION 9: TOTAL SOLITON ENERGY vs Q_K
======================================================================
  Soliton energies (kinetic, potential, total):
  e:   T=2.5748, V=749926.0546, E=749928.6294
  mu:  T=36.9415, V=749860.7481, E=749897.6896

    g0_tau      E_tot      E_sum    E_ratio      Q_K
    1.4500 749932.8045 2249759.1234     1.0000   2.0624
    1.4550 749951.9745 2249778.2935     1.0001   2.0485
    1.4600 749928.1049 2249754.4238     1.0000   2.0336
    1.4650 750017.8558 2249844.1747     1.0002   2.0178
    1.4700 749919.8392 2249746.1582     1.0000   2.0010
    1.4750 749925.3042 2249751.6231     1.0000   1.9834
    1.4800 750031.3688 2249857.6878     1.0002   1.9649
    1.4850 750032.7113 2249859.0303     1.0002   1.9455
    1.4900 749970.6747 2249796.9936     1.0001   1.9254
    1.4950 749955.5062 2249781.8252     1.0001   1.9045
    1.5000 750001.1313 2249827.4502     1.0001   1.8829
    1.5050 749911.9338 2249738.2527     1.0000   1.8606
    1.5100 750018.0428 2249844.3618     1.0002   1.8376
    1.5150 749915.8153 2249742.1342     1.0000   1.8138
    1.5200 749957.5150 2249783.8340     1.0001   1.7894
    1.5250 750005.8844 2249832.2034     1.0001   1.7643
    1.5300 750040.0400 2249866.3590     1.0002   1.7385
    1.5350 750025.1554 2249851.4743     1.0002   1.7120
    1.5400 749958.8248 2249785.1438     1.0001   1.6846
    1.5450 749950.6004 2249776.9194     1.0001   1.6564
    1.5500 749952.8470 2249779.1660     1.0001   1.6272
    1.5550 750054.0125 2249880.3314     1.0002   1.5969
    1.5600 750003.9275 2249830.2465     1.0001   1.5654
    1.5650 749995.0269 2249821.3459     1.0001   1.5323
    1.5700 750009.7998 2249836.1188     1.0001   1.4973 <-- Koide
    1.5750 749932.2891 2249758.6080     1.0000   1.4599
    1.5800 750000.2915 2249826.6105     1.0001   1.4191
    1.5850 750084.5542 2249910.8732     1.0002   1.3735
    1.5900 750105.8125 2249932.1315     1.0003   1.3201
    1.5950 750045.3278 2249871.6468     1.0002   1.2504

======================================================================
FINAL ANALYSIS: FIELD BALANCE HYPOTHESIS
======================================================================

  RESULTS:

  1. COMPLEX NEUTRALITY (sum A_i * exp(i*delta_i) = 0):
     |z_sum|/|z_tau| = 0.9029
     NOT zero.

  2. FIELD CHARGE NEUTRALITY (sum Q_i = 0):
     Q_e + Q_mu + Q_tau = -511.1697
     NOT zero at Koide point.

  3. SELF/CROSS RATIO:
     sum(A_i^4) / sum(A_i^2*A_j^2) = 4.0000
     (Q_K = 3/2 requires exactly 4.0)
     CONFIRMED!

  4. PHASE STRUCTURE:
     Phase differences: 150.1, 256.0, 105.9 deg
     (Koide circle has 120 deg spacing)

  KEY INSIGHT:
  Q_K = 3/2 means "self-interaction = 4 * cross-interaction" in
  the space of soliton tail amplitudes. This is a specific
  COUPLING CONDITION between the three generations.

  The question is: does the TGP ODE dynamics enforce this ratio?

